Smoothed ATR airfoil coordinates obtained  using A
   1.00000	   0.00000
   0.99588	   0.00063
   0.98930	   0.00166
   0.98219	   0.00278
   0.97453	   0.00402
   0.96632	   0.00538
   0.95762	   0.00685
   0.94853	   0.00843
   0.93914	   0.01011
   0.92950	   0.01188
   0.91961	   0.01374
   0.90952	   0.01567
   0.89926	   0.01768
   0.88886	   0.01973
   0.87837	   0.02182
   0.86781	   0.02394
   0.85720	   0.02606
   0.84658	   0.02817
   0.83597	   0.03027
   0.82538	   0.03234
   0.81483	   0.03438
   0.80430	   0.03638
   0.79378	   0.03834
   0.78325	   0.04027
   0.77271	   0.04217
   0.76214	   0.04403
   0.75155	   0.04587
   0.74094	   0.04769
   0.73030	   0.04948
   0.71963	   0.05126
   0.70894	   0.05302
   0.69825	   0.05476
   0.68755	   0.05648
   0.67686	   0.05818
   0.66620	   0.05986
   0.65556	   0.06150
   0.64494	   0.06311
   0.63433	   0.06468
   0.62369	   0.06622
   0.61301	   0.06774
   0.60230	   0.06923
   0.59155	   0.07070
   0.58077	   0.07216
   0.56996	   0.07362
   0.55914	   0.07506
   0.54833	   0.07650
   0.53758	   0.07792
   0.52688	   0.07932
   0.51624	   0.08068
   0.50567	   0.08200
   0.49517	   0.08327
   0.48472	   0.08449
   0.47431	   0.08565
   0.46390	   0.08675
   0.45348	   0.08780
   0.44303	   0.08880
   0.43255	   0.08975
   0.42202	   0.09067
   0.41144	   0.09154
   0.40081	   0.09239
   0.39014	   0.09321
   0.37945	   0.09401
   0.36876	   0.09479
   0.35806	   0.09554
   0.34739	   0.09626
   0.33674	   0.09696
   0.32615	   0.09763
   0.31563	   0.09825
   0.30520	   0.09883
   0.29487	   0.09937
   0.28465	   0.09984
   0.27456	   0.10025
   0.26460	   0.10059
   0.25479	   0.10084
   0.24514	   0.10101
   0.23565	   0.10108
   0.22633	   0.10105
   0.21719	   0.10090
   0.20822	   0.10063
   0.19941	   0.10024
   0.19077	   0.09972
   0.18230	   0.09907
   0.17398	   0.09828
   0.16583	   0.09734
   0.15784	   0.09627
   0.15000	   0.09504
   0.14232	   0.09367
   0.13479	   0.09216
   0.12742	   0.09050
   0.12023	   0.08871
   0.11320	   0.08678
   0.10636	   0.08472
   0.09970	   0.08254
   0.09323	   0.08024
   0.08698	   0.07785
   0.08097	   0.07537
   0.07522	   0.07283
   0.06973	   0.07025
   0.06450	   0.06762
   0.05954	   0.06497
   0.05483	   0.06229
   0.05037	   0.05960
   0.04616	   0.05692
   0.04223	   0.05426
   0.03856	   0.05165
   0.03517	   0.04909
   0.03204	   0.04661
   0.02915	   0.04420
   0.02648	   0.04186
   0.02401	   0.03960
   0.02172	   0.03740
   0.01959	   0.03525
   0.01762	   0.03317
   0.01580	   0.03114
   0.01412	   0.02917
   0.01256	   0.02727
   0.01113	   0.02542
   0.00981	   0.02363
   0.00860	   0.02190
   0.00748	   0.02023
   0.00646	   0.01860
   0.00553	   0.01703
   0.00467	   0.01549
   0.00390	   0.01399
   0.00319	   0.01252
   0.00256	   0.01109
   0.00201	   0.00968
   0.00152	   0.00831
   0.00109	   0.00697
   0.00074	   0.00566
   0.00045	   0.00438
   0.00023	   0.00314
   0.00008	   0.00192
   0.00000	   0.00072
   0.00001	  -0.00046
   0.00009	  -0.00163
   0.00026	  -0.00281
   0.00050	  -0.00398
   0.00081	  -0.00516
   0.00121	  -0.00634
   0.00169	  -0.00752
   0.00227	  -0.00872
   0.00293	  -0.00991
   0.00371	  -0.01110
   0.00459	  -0.01227
   0.00559	  -0.01342
   0.00671	  -0.01454
   0.00795	  -0.01563
   0.00930	  -0.01668
   0.01077	  -0.01770
   0.01234	  -0.01870
   0.01402	  -0.01968
   0.01582	  -0.02065
   0.01773	  -0.02161
   0.01979	  -0.02257
   0.02199	  -0.02353
   0.02437	  -0.02448
   0.02693	  -0.02542
   0.02970	  -0.02635
   0.03270	  -0.02727
   0.03594	  -0.02817
   0.03945	  -0.02906
   0.04325	  -0.02992
   0.04734	  -0.03077
   0.05176	  -0.03162
   0.05652	  -0.03246
   0.06164	  -0.03330
   0.06717	  -0.03413
   0.07313	  -0.03495
   0.07953	  -0.03575
   0.08640	  -0.03652
   0.09373	  -0.03726
   0.10153	  -0.03796
   0.10978	  -0.03863
   0.11845	  -0.03925
   0.12750	  -0.03983
   0.13690	  -0.04037
   0.14658	  -0.04088
   0.15651	  -0.04135
   0.16666	  -0.04178
   0.17698	  -0.04219
   0.18743	  -0.04256
   0.19801	  -0.04291
   0.20867	  -0.04324
   0.21939	  -0.04354
   0.23015	  -0.04384
   0.24092	  -0.04411
   0.25169	  -0.04436
   0.26245	  -0.04459
   0.27318	  -0.04480
   0.28388	  -0.04497
   0.29456	  -0.04511
   0.30520	  -0.04522
   0.31581	  -0.04529
   0.32640	  -0.04532
   0.33698	  -0.04530
   0.34756	  -0.04524
   0.35815	  -0.04513
   0.36877	  -0.04498
   0.37942	  -0.04480
   0.39011	  -0.04457
   0.40083	  -0.04432
   0.41159	  -0.04403
   0.42239	  -0.04373
   0.43321	  -0.04339
   0.44405	  -0.04305
   0.45491	  -0.04268
   0.46577	  -0.04229
   0.47661	  -0.04189
   0.48743	  -0.04147
   0.49824	  -0.04103
   0.50905	  -0.04056
   0.51986	  -0.04006
   0.53066	  -0.03955
   0.54146	  -0.03901
   0.55225	  -0.03845
   0.56302	  -0.03787
   0.57377	  -0.03726
   0.58450	  -0.03662
   0.59522	  -0.03595
   0.60595	  -0.03524
   0.61671	  -0.03451
   0.62751	  -0.03374
   0.63833	  -0.03295
   0.64917	  -0.03213
   0.66005	  -0.03130
   0.67098	  -0.03044
   0.68195	  -0.02957
   0.69295	  -0.02870
   0.70395	  -0.02783
   0.71494	  -0.02697
   0.72592	  -0.02611
   0.73689	  -0.02525
   0.74784	  -0.02439
   0.75875	  -0.02352
   0.76962	  -0.02265
   0.78043	  -0.02176
   0.79118	  -0.02086
   0.80188	  -0.01992
   0.81254	  -0.01896
   0.82318	  -0.01796
   0.83380	  -0.01693
   0.84442	  -0.01585
   0.85505	  -0.01475
   0.86567	  -0.01361
   0.87629	  -0.01245
   0.88690	  -0.01127
   0.89747	  -0.01007
   0.90798	  -0.00887
   0.91836	  -0.00768
   0.92854	  -0.00653
   0.93844	  -0.00543
   0.94801	  -0.00439
   0.95721	  -0.00344
   0.96598	  -0.00258
   0.97425	  -0.00183
   0.98199	  -0.00119
   0.98918	  -0.00067
   0.99584	  -0.00024
   1.00000	   0.00000
